/***********************************************************
* Ocean Resources and Renewable Energy Laboratory
* Version: v1.0 (Released on May 1st, 2021)
* Programmed by: Jessica Nguyen (Email: nvnguyen@umass.edu)
*----------------------------------------------------------
* Project Name:	NREL_VGOSWEC_inertia_springs

* Project Lead:	JD
* Labview Operator:	PH
* Comments:	Dry swing test to determine moment of inertia of VGOSWEC with springs. Naming convention: PHI (signed initial pos in deg) VGM (variable geometry module angle in deg).
* Date and Time:	Tue 06 Jul 2021 11:45:01 AM EDT
***********************************************************/

"Time(s)"	"Roll(deg)"	"Pitch(deg)"	
0.00000	0.00000	0.00000
0.00200	1.35300	89.73000
0.00400	1.35300	89.73000
0.00600	0.00000	0.00000
0.00800	1.26280	89.91000
0.01000	1.35300	89.73000
0.01200	1.35300	89.73000
0.01400	1.44320	89.73000
0.01600	1.44320	89.73000
0.01800	1.44320	89.73000
0.02000	1.35300	89.82000
0.02200	0.00000	0.00000
0.02400	1.26280	89.82000
0.02600	1.26280	89.91000
0.02800	1.26280	89.82000
0.03000	1.26280	89.73000
0.03200	1.26280	89.73000
0.03400	1.26280	89.73000
0.03600	0.00000	0.00000
0.03800	1.35300	89.73000
0.04000	1.35300	89.73000
0.04200	1.44320	89.82000
0.04400	0.00000	0.00000
0.04600	1.35300	89.82000
0.04800	1.26280	89.73000
0.05000	1.26280	89.82000
0.05200	0.00000	0.00000
0.05400	1.26280	89.82000
0.05600	1.35300	89.73000
0.05800	1.35300	89.91000
0.06000	0.00000	0.00000
0.06200	1.44320	89.82000
0.06400	1.35300	89.82000
0.06600	1.35300	89.91000
0.06800	1.26280	89.91000
0.07000	1.35300	89.82000
0.07200	1.35300	0.00000
0.07400	0.00000	0.00000
0.07600	1.44320	89.73000
0.07800	1.53340	89.73000
0.08000	1.53340	89.55000
0.08200	0.00000	0.00000
0.08400	1.53340	89.55000
0.08600	1.44320	89.55000
0.08800	1.35300	89.64000
0.09000	0.00000	0.00000
0.09200	1.44320	89.73000
0.09400	1.53340	89.82000
0.09600	1.53340	89.73000
0.09800	0.00000	0.00000
0.10000	1.44320	89.73000
0.10200	1.35300	89.73000
0.10400	1.35300	89.64000
0.10600	1.26280	89.73000
0.10800	1.17260	89.82000
0.11000	1.44320	89.82000
0.11200	0.00000	0.00000
0.11400	1.35300	89.73000
0.11600	1.35300	89.73000
0.11800	1.44320	89.73000
0.12000	0.00000	0.00000
0.12200	1.44320	89.82000
0.12400	1.35300	89.91000
0.12600	0.00000	0.00000
0.12800	0.00000	0.00000
0.13000	1.35300	89.91000
0.13200	1.26280	89.91000
0.13400	1.26280	89.91000
0.13600	1.35300	89.82000
0.13800	1.35300	89.82000
0.14000	1.26280	89.73000
0.14200	1.26280	89.82000
0.14400	1.35300	89.82000
0.14600	1.35300	89.64000
0.14800	1.35300	0.00000
0.15000	0.00000	0.00000
0.15200	1.35300	89.64000
0.15400	1.35300	89.64000
0.15600	1.44320	89.64000
0.15800	0.00000	89.64000
0.16000	1.44320	89.64000
0.16200	1.26280	89.73000
0.16400	0.00000	0.00000
0.16600	1.17260	89.64000
0.16800	1.35300	89.64000
0.17000	1.35300	89.55000
0.17200	0.00000	0.00000
0.17400	1.35300	89.73000
0.17600	1.35300	89.64000
0.17800	1.35300	89.73000
0.18000	0.00000	0.00000
0.18200	1.35300	89.82000
0.18400	1.35300	89.73000
0.18600	1.26280	89.73000
0.18800	0.00000	0.00000
0.19000	1.35300	89.73000
0.19200	1.35300	89.91000
0.19400	1.35300	89.91000
0.19600	0.00000	0.00000
0.19800	1.35300	89.82000
0.20000	1.35300	89.82000
0.20200	1.35300	89.82000
0.20400	1.26280	89.82000
0.20600	1.26280	89.73000
0.20800	1.26280	89.73000
0.21000	0.00000	0.00000
0.21200	1.44320	89.64000
0.21400	1.26280	89.73000
0.21600	1.26280	89.73000
0.21800	0.00000	0.00000
0.22000	1.35300	89.73000
0.22200	1.35300	89.73000
0.22400	1.35300	89.91000
0.22600	0.00000	0.00000
0.22800	1.26280	89.91000
0.23000	1.26280	89.73000
0.23200	1.26280	0.00000
0.23400	1.26280	89.55000
0.23600	1.26280	89.55000
0.23800	1.35300	89.73000
0.24000	1.35300	89.73000
0.24200	1.26280	89.73000
0.24400	1.26280	89.64000
0.24600	0.00000	0.00000
0.24800	0.00000	0.00000
0.25000	1.44320	89.82000
0.25200	0.00000	0.00000
0.25400	0.00000	0.00000
0.25600	1.35300	89.82000
0.25800	1.35300	89.82000
0.26000	1.35300	89.82000
0.26200	0.00000	0.00000
0.26400	0.00000	0.00000
0.26600	1.35300	89.82000
0.26800	1.26280	89.82000
0.27000	1.35300	89.73000
0.27200	1.35300	89.73000
0.27400	1.44320	89.82000
0.27600	1.44320	89.73000
0.27800	0.00000	0.00000
0.28000	1.53340	89.82000
0.28200	1.44320	89.82000
0.28400	1.35300	89.73000
0.28600	0.00000	0.00000
0.28800	1.44320	89.73000
0.29000	1.35300	89.73000
0.29200	1.35300	89.73000
0.29400	0.00000	0.00000
0.29600	1.35300	89.64000
0.29800	1.35300	89.73000
0.30000	0.00000	0.00000
0.30200	1.35300	89.73000
0.30400	1.44320	89.82000
0.30600	1.44320	89.82000
0.30800	0.00000	0.00000
0.31000	1.53340	89.82000
0.31200	1.44320	89.73000
0.31400	1.35300	89.82000
0.31600	0.00000	0.00000
0.31800	1.35300	89.73000
0.32000	1.44320	89.73000
0.32200	1.35300	89.91000
0.32400	0.00000	0.00000
0.32600	1.26280	89.91000
0.32800	1.26280	89.91000
0.33000	1.35300	89.91000
0.33200	1.35300	89.91000
0.33400	1.44320	90.00000
0.33600	1.35300	89.82000
0.33800	0.00000	0.00000
0.34000	1.35300	89.73000
0.34200	1.26280	89.73000
0.34400	1.35300	89.64000
0.34600	0.00000	0.00000
0.34800	1.35300	89.73000
0.35000	1.17260	89.64000
0.35200	1.26280	89.73000
0.35400	0.00000	0.00000
0.35600	1.26280	89.64000
0.35800	1.26280	89.73000
0.36000	1.26280	89.82000
0.36200	1.35300	89.82000
0.36400	1.17260	89.91000
0.36600	1.35300	89.82000
0.36800	0.00000	0.00000
0.37000	1.44320	89.82000
0.37200	1.44320	89.73000
0.37400	1.35300	89.91000
0.37600	0.00000	0.00000
0.37800	1.35300	90.00000
0.38000	1.26280	89.91000
0.38200	1.26280	89.73000
0.38400	0.00000	0.00000
0.38600	1.26280	89.73000
0.38800	1.44320	89.82000
0.39000	1.44320	89.73000
0.39200	0.00000	0.00000
0.39400	1.44320	89.82000
0.39600	1.35300	89.82000
0.39800	1.26280	89.82000
0.40000	1.35300	89.91000
0.40200	1.35300	89.82000
0.40400	1.26280	89.73000
0.40600	0.00000	0.00000
0.40800	1.35300	89.73000
0.41000	1.44320	89.73000
0.41200	1.44320	89.73000
0.41400	0.00000	0.00000
0.41600	1.44320	89.82000
0.41800	1.35300	89.73000
0.42000	1.35300	89.73000
0.42200	1.26280	89.82000
0.42400	1.44320	89.73000
0.42600	1.44320	89.73000
0.42800	0.00000	0.00000
0.43000	1.26280	89.82000
0.43200	1.26280	89.82000
0.43400	1.35300	89.82000
0.43600	0.00000	0.00000
0.43800	1.44320	89.82000
0.44000	1.26280	89.73000
0.44200	1.26280	89.73000
0.44400	0.00000	0.00000
0.44600	1.35300	89.82000
0.44800	1.35300	89.73000
0.45000	1.44320	89.73000
0.45200	0.00000	0.00000
0.45400	1.44320	89.73000
0.45600	0.00000	0.00000
0.45800	0.00000	0.00000
0.46000	1.44320	89.73000
0.46200	1.44320	89.73000
0.46400	1.44320	89.82000
0.46600	0.00000	0.00000
0.46800	1.44320	89.73000
0.47000	1.44320	89.73000
0.47200	1.35300	89.82000
0.47400	0.00000	0.00000
0.47600	1.26280	89.82000
0.47800	1.26280	89.73000
0.48000	1.35300	0.00000
0.48200	0.00000	0.00000
0.48400	1.35300	89.82000
0.48600	1.35300	89.91000
0.48800	1.44320	89.91000
0.49000	1.35300	89.82000
0.49200	1.35300	89.82000
0.49400	1.35300	89.73000
0.49600	0.00000	0.00000
0.49800	1.26280	89.82000
0.50000	1.35300	89.73000
0.50200	1.35300	89.73000
0.50400	0.00000	0.00000
0.50600	1.35300	89.73000
0.50800	1.44320	89.73000
0.51000	1.44320	89.64000
0.51200	0.00000	89.73000
0.51400	1.35300	89.73000
0.51600	1.35300	89.73000
0.51800	1.44320	89.73000
0.52000	1.44320	89.82000
0.52200	1.44320	89.82000
0.52400	1.44320	89.73000
0.52600	1.44320	89.73000
0.52800	1.44320	89.73000
0.53000	1.44320	89.64000
0.53200	1.35300	89.73000
0.53400	0.00000	0.00000
0.53600	1.44320	89.73000
0.53800	1.44320	89.73000
0.54000	1.35300	0.00000
0.54200	0.00000	0.00000
0.54400	1.35300	89.91000
0.54600	1.35300	89.82000
0.54800	1.35300	89.73000
0.55000	0.00000	0.00000
0.55200	1.26280	89.73000
0.55400	1.26280	89.82000
0.55600	1.26280	89.82000
0.55800	0.00000	0.00000
0.56000	1.26280	89.82000
0.56200	0.00000	0.00000
0.56400	0.00000	0.00000
0.56600	1.26280	89.82000
0.56800	1.26280	89.82000
0.57000	1.26280	89.82000
0.57200	0.00000	0.00000
0.57400	1.35300	89.82000
0.57600	1.17260	89.64000
0.57800	1.26280	89.73000
0.58000	0.00000	0.00000
0.58200	1.44320	89.73000
0.58400	1.35300	89.73000
0.58600	1.35300	89.82000
0.58800	1.44320	89.82000
0.59000	1.35300	89.82000
0.59200	1.35300	89.73000
0.59400	0.00000	0.00000
0.59600	1.35300	89.73000
0.59800	1.26280	89.82000
0.60000	1.26280	89.91000
0.60200	0.00000	0.00000
0.60400	1.26280	89.91000
0.60600	1.35300	89.82000
0.60800	1.35300	89.64000
0.61000	0.00000	0.00000
0.61200	1.35300	89.73000
0.61400	1.35300	89.73000
0.61600	1.44320	89.82000
0.61800	1.53340	89.82000
0.62000	1.53340	89.82000
0.62200	1.44320	89.82000
0.62400	0.00000	0.00000
0.62600	1.44320	89.91000
0.62800	1.26280	89.82000
0.63000	1.35300	89.82000
0.63200	0.00000	0.00000
0.63400	1.35300	89.82000
0.63600	1.35300	89.82000
0.63800	1.35300	89.82000
0.64000	0.00000	0.00000
0.64200	1.26280	89.82000
0.64400	1.35300	89.73000
0.64600	1.26280	89.64000
0.64800	0.00000	0.00000
0.65000	1.26280	89.73000
0.65200	1.26280	89.82000
0.65400	0.00000	0.00000
0.65600	1.35300	89.91000
0.65800	1.44320	89.91000
0.66000	1.35300	89.82000
0.66200	0.00000	0.00000
0.66400	1.35300	89.91000
0.66600	1.44320	89.91000
0.66800	1.35300	90.00000
0.67000	0.00000	0.00000
0.67200	1.35300	89.91000
0.67400	1.35300	89.73000
0.67600	0.00000	0.00000
0.67800	1.44320	89.73000
0.68000	1.35300	89.64000
0.68200	1.35300	89.73000
0.68400	0.00000	0.00000
0.68600	1.44320	89.73000
0.68800	1.53340	89.64000
0.69000	1.35300	89.64000
0.69200	0.00000	0.00000
0.69400	1.35300	89.64000
0.69600	1.35300	89.73000
0.69800	0.00000	0.00000
0.70000	1.35300	89.73000
0.70200	1.44320	89.82000
0.70400	0.00000	0.00000
0.70600	1.53340	89.82000
0.70800	1.53340	89.73000
0.71000	1.53340	89.73000
0.71200	0.00000	0.00000
0.71400	1.44320	89.73000
0.71600	1.44320	89.73000
0.71800	1.44320	89.73000
0.72000	0.00000	0.00000
0.72200	1.53340	89.82000
0.72400	1.53340	89.73000
0.72600	1.44320	89.73000
0.72800	0.00000	0.00000
0.73000	1.35300	89.82000
0.73200	1.35300	89.82000
0.73400	1.53340	89.82000
0.73600	0.00000	0.00000
0.73800	1.53340	89.82000
0.74000	1.35300	89.73000
0.74200	1.26280	89.73000
0.74400	0.00000	0.00000
0.74600	1.35300	89.73000
0.74800	1.44320	89.91000
0.75000	0.00000	0.00000
0.75200	1.53340	89.91000
0.75400	1.35300	89.82000
0.75600	1.26280	89.82000
0.75800	0.00000	0.00000
0.76000	1.26280	89.82000
0.76200	1.44320	89.73000
0.76400	1.44320	89.73000
0.76600	0.00000	0.00000
0.76800	1.44320	89.73000
0.77000	1.35300	89.64000
0.77200	0.00000	0.00000
0.77400	1.44320	89.73000
0.77600	1.53340	89.82000
0.77800	1.35300	89.82000
0.78000	0.00000	0.00000
0.78200	1.44320	89.82000
0.78400	1.44320	89.91000
0.78600	1.44320	90.00000
0.78800	0.00000	0.00000
0.79000	1.44320	89.91000
0.79200	1.44320	89.82000
0.79400	1.44320	89.73000
0.79600	0.00000	0.00000
0.79800	1.26280	89.73000
0.80000	1.35300	89.82000
0.80200	1.44320	89.82000
0.80400	0.00000	0.00000
0.80600	1.44320	89.82000
0.80800	1.35300	89.82000
0.81000	1.35300	89.73000
0.81200	0.00000	0.00000
0.81400	1.35300	89.82000
0.81600	1.35300	89.82000
0.81800	1.35300	89.91000
0.82000	1.26280	89.91000
0.82200	1.26280	89.91000
0.82400	1.26280	89.73000
0.82600	0.00000	0.00000
0.82800	1.17260	89.64000
0.83000	1.26280	89.73000
0.83200	1.44320	89.73000
0.83400	0.00000	0.00000
0.83600	1.35300	89.82000
0.83800	1.35300	89.82000
0.84000	1.26280	89.82000
0.84200	0.00000	0.00000
0.84400	1.17260	89.82000
0.84600	1.17260	89.82000
0.84800	1.17260	89.73000
0.85000	1.26280	89.73000
0.85200	1.17260	89.82000
0.85400	1.26280	89.73000
0.85600	0.00000	0.00000
0.85800	1.26280	89.82000
0.86000	1.35300	89.82000
0.86200	1.35300	89.82000
0.86400	1.17260	89.91000
0.86600	1.26280	89.82000
0.86800	1.26280	89.82000
0.87000	1.26280	89.73000
0.87200	0.00000	0.00000
0.87400	1.26280	89.82000
0.87600	1.26280	89.82000
0.87800	1.26280	89.82000
0.88000	1.26280	89.82000
0.88200	1.26280	89.82000
0.88400	1.35300	90.00000
0.88600	0.00000	0.00000
0.88800	1.35300	89.91000
0.89000	1.44320	89.91000
0.89200	1.53340	89.91000
0.89400	0.00000	0.00000
0.89600	1.53340	89.82000
0.89800	1.53340	89.91000
0.90000	1.44320	89.91000
0.90200	0.00000	0.00000
0.90400	1.53340	89.73000
0.90600	1.62360	89.73000
0.90800	1.53340	89.82000
0.91000	1.53340	89.73000
0.91200	1.62360	89.82000
0.91400	1.62360	89.82000
0.91600	0.00000	0.00000
0.91800	1.71380	89.91000
0.92000	1.62360	89.82000
0.92200	1.71380	89.91000
0.92400	0.00000	0.00000
0.92600	1.80400	89.91000
0.92800	1.62360	89.73000
0.93000	0.00000	0.00000
0.93200	1.71380	89.73000
0.93400	1.62360	89.64000
0.93600	1.62360	89.73000
0.93800	0.00000	0.00000
0.94000	1.71380	89.73000
0.94200	1.53340	89.73000
0.94400	1.53340	89.64000
0.94600	0.00000	0.00000
0.94800	1.62360	89.55000
0.95000	1.62360	89.46000
0.95200	0.00000	0.00000
0.95400	1.53340	89.55000
0.95600	1.62360	89.55000
0.95800	1.71380	89.64000
0.96000	0.00000	0.00000
0.96200	1.71380	89.55000
0.96400	1.71380	89.64000
0.96600	1.80400	89.64000
0.96800	0.00000	0.00000
0.97000	1.89420	89.64000
0.97200	1.89420	89.64000
0.97400	1.89420	89.73000
0.97600	0.00000	0.00000
0.97800	1.89420	89.55000
0.98000	1.89420	89.55000
0.98200	1.80400	89.46000
0.98400	0.00000	0.00000
0.98600	1.98440	89.55000
0.98800	1.98440	89.64000
0.99000	0.00000	0.00000
0.99200	1.89420	89.82000
0.99400	1.98440	89.73000
0.99600	1.89420	89.73000
0.99800	0.00000	0.00000
1.00000	1.98440	89.64000
1.00200	1.80400	89.64000
1.00400	1.89420	89.64000
1.00600	0.00000	0.00000
1.00800	1.89420	89.73000
1.01000	1.89420	89.73000
1.01200	1.98440	89.82000
1.01400	0.00000	0.00000
1.01600	1.98440	89.82000
1.01800	2.07460	89.64000
1.02000	0.00000	0.00000
1.02200	2.16480	89.73000
1.02400	2.07460	89.91000
1.02600	2.07460	89.91000
1.02800	0.00000	0.00000
1.03000	2.16480	89.82000
1.03200	2.25500	89.82000
1.03400	2.16480	89.91000
1.03600	0.00000	0.00000
1.03800	2.25500	89.82000
1.04000	2.34520	89.91000
1.04200	0.00000	0.00000
1.04400	2.25500	90.09000
1.04600	2.25500	90.00000
1.04800	2.25500	90.00000
1.05000	0.00000	0.00000
1.05200	2.25500	89.91000
1.05400	2.25500	89.82000
1.05600	2.34520	89.82000
1.05800	0.00000	0.00000
1.06000	2.25500	89.82000
1.06200	2.34520	89.73000
1.06400	0.00000	0.00000
1.06600	2.43540	89.82000
1.06800	2.52560	89.91000
1.07000	2.61580	89.91000
1.07200	0.00000	0.00000
1.07400	2.61580	89.91000
1.07600	2.70600	89.91000
1.07800	2.79620	89.82000
1.08000	0.00000	0.00000
1.08200	2.79620	89.91000
1.08400	2.79620	89.91000
1.08600	2.88640	89.82000
1.08800	0.00000	0.00000
1.09000	2.97660	89.82000
1.09200	3.24720	89.91000
1.09400	3.33740	89.91000
1.09600	0.00000	0.00000
1.09800	3.33740	89.91000
1.10000	3.51780	89.82000
1.10200	0.00000	0.00000
1.10400	3.69820	89.82000
1.10600	3.60800	89.91000
1.10800	3.69820	89.82000
1.11000	0.00000	0.00000
1.11200	3.69820	89.64000
1.11400	3.96880	89.73000
1.11600	3.96880	89.64000
1.11800	0.00000	0.00000
1.12000	3.96880	89.64000
1.12200	4.14920	89.82000
1.12400	4.14920	89.82000
1.12600	0.00000	0.00000
1.12800	4.23940	89.82000
1.13000	4.32960	89.64000
1.13200	4.32960	89.55000
1.13400	0.00000	0.00000
1.13600	4.32960	89.46000
1.13800	4.60020	89.55000
1.14000	0.00000	0.00000
1.14200	4.69040	89.55000
1.14400	4.78060	89.64000
1.14600	4.78060	89.64000
1.14800	0.00000	0.00000
1.15000	4.60020	89.55000
1.15200	4.78060	89.55000
1.15400	4.69040	89.64000
1.15600	0.00000	0.00000
1.15800	4.78060	89.55000
1.16000	4.60020	89.64000
1.16200	4.69040	89.55000
1.16400	0.00000	0.00000
1.16600	4.69040	89.55000
1.16800	4.69040	89.55000
1.17000	4.69040	89.64000
1.17200	0.00000	0.00000
1.17400	4.69040	89.64000
1.17600	4.60020	89.73000
1.17800	0.00000	0.00000
1.18000	4.41980	89.64000
1.18200	4.14920	89.82000
1.18400	4.14920	89.73000
1.18600	0.00000	0.00000
1.18800	4.14920	89.73000
1.19000	4.05900	89.91000
1.19200	3.96880	89.91000
1.19400	0.00000	0.00000
1.19600	3.87860	89.82000
1.19800	3.78840	89.73000
1.20000	3.60800	89.73000
1.20200	0.00000	0.00000
1.20400	3.42760	89.73000
1.20600	3.42760	89.82000
1.20800	3.33740	89.91000
1.21000	0.00000	0.00000
1.21200	3.42760	90.00000
1.21400	3.15700	89.91000
1.21600	0.00000	0.00000
1.21800	3.15700	89.82000
1.22000	3.24720	90.00000
1.22200	3.24720	90.00000
1.22400	0.00000	0.00000
1.22600	3.15700	90.00000
1.22800	3.15700	90.18000
1.23000	2.97660	90.09000
1.23200	0.00000	0.00000
1.23400	3.06680	90.09000
1.23600	2.97660	90.00000
1.23800	2.97660	90.00000
1.24000	0.00000	0.00000
1.24200	2.97660	90.00000
1.24400	2.97660	90.00000
1.24600	2.88640	90.00000
1.24800	2.97660	90.00000
1.25000	3.06680	90.09000
1.25200	0.00000	0.00000
1.25400	3.15700	90.00000
1.25600	3.06680	90.00000
1.25800	2.97660	90.00000
1.26000	3.06680	90.09000
1.26200	0.00000	0.00000
1.26400	2.97660	90.00000
1.26600	3.06680	89.91000
1.26800	3.06680	89.82000
1.27000	0.00000	0.00000
1.27200	3.06680	89.82000
1.27400	2.97660	89.91000
1.27600	3.06680	90.00000
1.27800	3.06680	89.91000
1.28000	2.97660	89.82000
1.28200	2.79620	89.73000
1.28400	0.00000	0.00000
1.28600	2.79620	89.82000
1.28800	2.79620	89.82000
1.29000	2.88640	89.73000
1.29200	2.88640	89.82000
1.29400	2.79620	89.82000
1.29600	2.79620	89.73000
1.29800	2.70600	89.64000
1.30000	2.70600	89.55000
1.30200	2.70600	89.64000
1.30400	2.61580	89.55000
1.30600	2.61580	89.55000
1.30800	2.61580	89.64000
1.31000	2.61580	89.55000
1.31200	2.52560	89.64000
1.31400	2.70600	89.73000
1.31600	2.70600	89.73000
1.31800	2.61580	89.73000
1.32000	2.61580	89.64000
1.32200	0.00000	0.00000
1.32400	2.52560	89.73000
1.32600	2.43540	89.64000
1.32800	2.43540	89.55000
1.33000	0.00000	0.00000
1.33200	2.43540	89.64000
1.33400	2.52560	89.64000
1.33600	2.43540	89.73000
1.33800	2.43540	89.73000
1.34000	2.52560	89.64000
1.34200	2.52560	89.73000
1.34400	2.52560	89.73000
1.34600	2.52560	89.73000
1.34800	2.52560	89.73000
1.35000	2.52560	89.64000
1.35200	0.00000	0.00000
1.35400	2.52560	89.73000
1.35600	2.52560	89.73000
1.35800	2.34520	89.73000
1.36000	2.34520	89.73000
1.36200	2.34520	89.73000
1.36400	2.16480	89.64000
1.36600	0.00000	0.00000
1.36800	2.16480	89.64000
1.37000	1.98440	89.64000
1.37200	1.89420	89.73000
1.37400	0.00000	0.00000
1.37600	1.89420	89.64000
1.37800	1.89420	89.73000
1.38000	1.80400	89.73000
1.38200	0.00000	0.00000
1.38400	1.71380	89.64000
1.38600	1.80400	89.64000
1.38800	1.80400	89.73000
1.39000	0.00000	0.00000
1.39200	1.80400	89.64000
1.39400	1.71380	89.64000
1.39600	1.71380	89.73000
1.39800	1.71380	89.73000
1.40000	1.71380	89.55000
1.40200	1.98440	89.64000
1.40400	0.00000	0.00000
1.40600	1.98440	89.73000
1.40800	2.07460	89.82000
1.41000	0.00000	0.00000
1.41200	0.00000	0.00000
1.41400	2.07460	89.82000
1.41600	2.07460	89.91000
1.41800	2.07460	89.91000
1.42000	2.07460	89.91000
1.42200	2.07460	89.82000
1.42400	2.16480	0.00000
1.42600	0.00000	0.00000
1.42800	2.25500	89.91000
1.43000	2.16480	89.91000
1.43200	2.16480	89.91000
1.43400	0.00000	0.00000
1.43600	2.07460	90.00000
1.43800	2.16480	90.00000
1.44000	2.07460	90.00000
1.44200	0.00000	0.00000
1.44400	2.07460	89.91000
1.44600	2.25500	89.91000
1.44800	2.25500	89.82000
1.45000	0.00000	0.00000
1.45200	2.25500	89.82000
1.45400	2.16480	89.73000
1.45600	2.25500	89.73000
1.45800	0.00000	0.00000
1.46000	2.34520	89.73000
1.46200	0.00000	0.00000
1.46400	0.00000	0.00000
1.46600	2.34520	89.64000
1.46800	2.34520	89.55000
1.47000	2.52560	89.55000
1.47200	0.00000	0.00000
1.47400	2.61580	89.55000
1.47600	2.61580	89.55000
1.47800	2.70600	89.55000
1.48000	0.00000	0.00000
1.48200	2.79620	89.55000
1.48400	2.70600	89.46000
1.48600	2.88640	89.28000
1.48800	0.00000	0.00000
1.49000	2.88640	89.19000
1.49200	2.88640	89.28000
1.49400	2.88640	89.37000
1.49600	0.00000	0.00000
1.49800	2.88640	89.37000
1.50000	2.97660	89.37000
1.50200	2.97660	89.37000
1.50400	2.88640	89.46000
1.50600	3.06680	89.46000
1.50800	3.06680	89.55000
1.51000	0.00000	0.00000
1.51200	3.15700	89.55000
1.51400	3.15700	89.55000
1.51600	2.97660	89.55000
1.51800	0.00000	0.00000
1.52000	3.06680	89.55000
1.52200	3.06680	89.64000
1.52400	2.97660	89.64000
1.52600	0.00000	0.00000
1.52800	3.06680	89.64000
1.53000	2.88640	89.64000
1.53200	0.00000	0.00000
1.53400	2.97660	89.73000
1.53600	3.06680	89.82000
1.53800	2.97660	89.73000
1.54000	2.88640	89.64000
1.54200	2.97660	89.64000
1.54400	2.97660	89.73000
1.54600	2.88640	89.73000
1.54800	0.00000	0.00000
1.55000	2.97660	89.82000
1.55200	2.88640	89.91000
1.55400	2.88640	89.82000
1.55600	2.79620	89.91000
1.55800	2.88640	89.91000
1.56000	2.88640	90.00000
1.56200	0.00000	0.00000
1.56400	2.97660	90.00000
1.56600	3.06680	90.09000
1.56800	3.06680	90.09000
1.57000	0.00000	0.00000
1.57200	3.06680	90.00000
1.57400	2.97660	90.00000
1.57600	2.97660	90.18000
1.57800	0.00000	0.00000
1.58000	2.97660	90.18000
1.58200	3.06680	90.09000
1.58400	3.15700	90.00000
1.58600	0.00000	0.00000
1.58800	3.24720	90.00000
1.59000	3.15700	90.00000
1.59200	3.33740	90.09000
1.59400	3.33740	90.09000
1.59600	3.42760	90.09000
1.59800	3.51780	90.00000
1.60000	0.00000	0.00000
1.60200	3.60800	90.00000
1.60400	3.60800	90.00000
1.60600	3.69820	90.00000
1.60800	0.00000	0.00000
1.61000	3.78840	89.91000
1.61200	3.78840	90.00000
1.61400	3.78840	90.00000
1.61600	0.00000	0.00000
1.61800	3.78840	89.91000
1.62000	3.78840	90.00000
1.62200	3.87860	89.91000
1.62400	3.96880	89.91000
1.62600	3.96880	89.82000
1.62800	0.00000	0.00000
1.63000	0.00000	0.00000
1.63200	4.05900	89.64000
1.63400	3.96880	89.64000
1.63600	3.96880	89.73000
1.63800	4.05900	89.73000
1.64000	4.05900	89.64000
1.64200	3.96880	89.55000
1.64400	0.00000	0.00000
1.64600	3.87860	89.55000
1.64800	4.05900	89.55000
1.65000	4.05900	89.46000
1.65200	4.05900	89.55000
1.65400	0.00000	0.00000
1.65600	4.05900	89.46000
1.65800	4.05900	89.37000
1.66000	4.05900	89.46000
1.66200	4.05900	89.46000
1.66400	4.05900	89.37000
1.66600	3.96880	89.37000
1.66800	4.05900	89.37000
1.67000	4.14920	89.28000
1.67200	4.23940	89.28000
1.67400	4.05900	89.28000
1.67600	0.00000	0.00000
1.67800	4.05900	89.37000
1.68000	3.96880	89.28000
1.68200	4.05900	89.19000
1.68400	0.00000	0.00000
1.68600	4.14920	89.28000
1.68800	4.14920	89.19000
1.69000	4.05900	89.19000
1.69200	3.96880	89.28000
1.69400	4.14920	89.37000
1.69600	4.23940	89.37000
1.69800	4.23940	89.37000
1.70000	4.23940	89.19000
1.70200	4.14920	89.37000
1.70400	0.00000	0.00000
1.70600	4.32960	89.37000
1.70800	4.23940	89.37000
1.71000	4.23940	89.37000
1.71200	0.00000	0.00000
1.71400	4.23940	89.37000
1.71600	4.14920	89.46000
1.71800	4.05900	89.55000
1.72000	0.00000	0.00000
1.72200	4.05900	89.46000
1.72400	4.14920	0.00000
1.72600	0.00000	0.00000
1.72800	4.05900	89.64000
1.73000	4.14920	89.64000
1.73200	4.32960	89.55000
1.73400	0.00000	0.00000
1.73600	4.32960	89.64000
1.73800	4.32960	89.55000
1.74000	4.32960	89.64000
1.74200	0.00000	0.00000
1.74400	4.32960	89.64000
1.74600	4.32960	89.73000
1.74800	4.14920	89.73000
1.75000	0.00000	0.00000
1.75200	4.23940	89.64000
1.75400	4.32960	89.73000
1.75600	4.32960	89.73000
1.75800	4.51000	89.82000
1.76000	4.41980	89.82000
1.76200	4.51000	89.91000
1.76400	0.00000	0.00000
1.76600	4.41980	89.91000
1.76800	4.51000	89.82000
1.77000	4.41980	89.91000
1.77200	0.00000	0.00000
1.77400	4.41980	90.00000
1.77600	4.51000	89.91000
1.77800	4.69040	89.91000
1.78000	0.00000	0.00000
1.78200	4.60020	89.82000
1.78400	4.78060	89.91000
1.78600	4.78060	90.00000
1.78800	4.87080	89.91000
1.79000	4.87080	89.91000
1.79200	4.69040	89.82000
1.79400	0.00000	0.00000
1.79600	4.69040	89.82000
1.79800	4.60020	89.73000
1.80000	4.51000	89.64000
1.80200	0.00000	0.00000
1.80400	4.51000	89.73000
1.80600	4.51000	89.73000
1.80800	4.69040	89.55000
1.81000	0.00000	0.00000
1.81200	4.69040	89.64000
1.81400	4.69040	89.73000
1.81600	4.69040	89.64000
1.81800	4.78060	89.55000
1.82000	4.87080	89.55000
1.82200	4.96100	89.46000
1.82400	0.00000	0.00000
1.82600	5.14140	89.37000
1.82800	5.14140	89.46000
1.83000	5.32180	89.37000
1.83200	0.00000	0.00000
1.83400	5.41200	89.46000
1.83600	5.41200	89.46000
1.83800	5.59240	89.55000
1.84000	0.00000	0.00000
1.84200	5.59240	89.46000
1.84400	5.77280	89.46000
1.84600	5.77280	89.64000
1.84800	0.00000	0.00000
1.85000	5.77280	89.64000
1.85200	5.68260	89.64000
1.85400	5.68260	89.64000
1.85600	5.68260	89.73000
1.85800	5.86300	89.82000
1.86000	5.86300	89.73000
1.86200	0.00000	0.00000
1.86400	5.86300	89.73000
1.86600	5.86300	89.73000
1.86800	5.95320	89.64000
1.87000	0.00000	0.00000
1.87200	5.95320	89.73000
1.87400	5.86300	89.73000
1.87600	5.68260	89.73000
1.87800	0.00000	0.00000
1.88000	5.68260	89.64000
1.88200	5.59240	89.64000
1.88400	5.50220	89.73000
1.88600	0.00000	0.00000
1.88800	5.50220	89.73000
1.89000	5.50220	89.73000
1.89200	5.41200	89.82000
1.89400	5.41200	89.73000
1.89600	5.32180	89.73000
1.89800	5.32180	89.82000
1.90000	0.00000	0.00000
1.90200	5.32180	89.82000
1.90400	5.23160	89.91000
1.90600	5.23160	89.91000
1.90800	0.00000	0.00000
1.91000	5.23160	89.82000
1.91200	5.14140	90.00000
1.91400	5.23160	89.91000
1.91600	0.00000	0.00000
1.91800	5.32180	89.91000
1.92000	5.32180	89.91000
1.92200	5.41200	89.82000
1.92400	0.00000	0.00000
1.92600	5.50220	89.82000
1.92800	5.41200	89.91000
1.93000	5.50220	89.91000
1.93200	0.00000	0.00000
1.93400	5.50220	89.91000
1.93600	5.50220	89.91000
1.93800	5.59240	90.00000
1.94000	5.59240	90.00000
1.94200	5.68260	90.00000
1.94400	5.68260	89.91000
1.94600	0.00000	0.00000
1.94800	5.77280	89.82000
1.95000	5.86300	89.82000
1.95200	5.86300	89.91000
1.95400	0.00000	0.00000
1.95600	5.95320	89.91000
1.95800	5.86300	90.00000
1.96000	5.77280	90.00000
1.96200	0.00000	0.00000
1.96400	5.77280	89.82000
1.96600	5.86300	89.82000
1.96800	5.77280	89.82000
1.97000	5.59240	89.82000
1.97200	5.68260	89.73000
1.97400	5.59240	89.64000
1.97600	0.00000	0.00000
1.97800	5.50220	89.55000
1.98000	5.50220	89.55000
1.98200	5.50220	89.55000
1.98400	0.00000	0.00000
1.98600	5.50220	89.64000
1.98800	5.32180	89.64000
1.99000	5.32180	89.55000
1.99200	0.00000	0.00000
1.99400	5.32180	89.46000
1.99600	5.41200	89.37000
1.99800	5.32180	89.37000
2.00000	0.00000	0.00000
2.00200	5.32180	89.28000
2.00400	5.23160	89.28000
2.00600	0.00000	0.00000
2.00800	5.32180	89.37000
2.01000	5.32180	89.37000
2.01200	5.32180	89.37000
2.01400	0.00000	0.00000
2.01600	5.32180	89.28000
2.01800	5.41200	89.28000
2.02000	5.59240	89.19000
2.02200	0.00000	0.00000
2.02400	5.59240	89.19000
2.02600	5.50220	89.19000
2.02800	5.50220	89.37000
2.03000	0.00000	0.00000
2.03200	5.41200	89.28000
2.03400	5.41200	89.37000
2.03600	5.41200	89.37000
2.03800	5.41200	89.46000
2.04000	5.41200	89.46000
2.04200	5.32180	89.46000
2.04400	0.00000	0.00000
2.04600	5.32180	89.37000
2.04800	5.32180	89.28000
2.05000	5.23160	89.37000
2.05200	0.00000	0.00000
2.05400	5.23160	89.37000
2.05600	5.14140	89.37000
2.05800	4.96100	89.37000
2.06000	0.00000	0.00000
2.06200	4.87080	89.37000
2.06400	4.87080	89.37000
2.06600	4.96100	89.28000
2.06800	0.00000	0.00000
2.07000	4.96100	89.46000
2.07200	4.96100	89.46000
2.07400	4.96100	89.37000
2.07600	4.87080	89.46000
2.07800	4.87080	89.46000
2.08000	4.87080	89.64000
2.08200	0.00000	0.00000
2.08400	4.87080	89.55000
2.08600	4.96100	89.64000
2.08800	4.96100	89.46000
2.09000	0.00000	0.00000
2.09200	4.96100	89.55000
2.09400	4.87080	89.55000
2.09600	4.96100	89.64000
2.09800	0.00000	0.00000
2.10000	4.87080	89.73000
2.10200	4.87080	89.73000
2.10400	4.96100	89.64000
2.10600	4.96100	89.73000
2.10800	4.87080	89.73000
2.11000	4.96100	89.73000
2.11200	0.00000	0.00000
2.11400	4.96100	89.64000
2.11600	4.87080	89.64000
2.11800	4.78060	89.73000
2.12000	0.00000	0.00000
2.12200	4.69040	89.73000
2.12400	4.78060	89.73000
2.12600	4.87080	89.64000
2.12800	0.00000	0.00000
2.13000	4.96100	89.64000
2.13200	4.87080	89.64000
2.13400	5.05120	89.55000
2.13600	0.00000	0.00000
2.13800	5.05120	89.55000
2.14000	5.05120	89.64000
2.14200	5.05120	89.64000
2.14400	5.05120	89.55000
2.14600	5.14140	89.55000
2.14800	5.23160	89.55000
2.15000	0.00000	0.00000
2.15200	5.41200	89.64000
2.15400	5.32180	89.73000
2.15600	5.05120	89.64000
2.15800	0.00000	0.00000
2.16000	5.05120	89.55000
2.16200	5.14140	89.55000
2.16400	5.14140	89.55000
2.16600	5.14140	89.64000
2.16800	5.14140	89.64000
2.17000	5.23160	89.64000
2.17200	0.00000	0.00000
2.17400	5.23160	89.64000
2.17600	5.32180	89.55000
2.17800	5.50220	89.46000
2.18000	0.00000	0.00000
2.18200	5.50220	89.37000
2.18400	5.50220	89.28000
2.18600	5.68260	89.37000
2.18800	0.00000	0.00000
2.19000	5.68260	89.46000
2.19200	5.59240	89.37000
2.19400	0.00000	0.00000
2.19600	5.50220	89.46000
2.19800	5.50220	89.37000
2.20000	5.68260	89.37000
2.20200	5.68260	89.46000
2.20400	5.68260	89.55000
2.20600	5.77280	89.55000
2.20800	5.68260	89.55000
2.21000	0.00000	0.00000
2.21200	5.77280	89.55000
2.21400	5.77280	89.46000
2.21600	5.77280	89.55000
2.21800	0.00000	0.00000
2.22000	5.86300	89.46000
2.22200	5.86300	89.55000
2.22400	5.95320	89.55000
2.22600	0.00000	0.00000
2.22800	5.77280	89.64000
2.23000	5.86300	89.73000
2.23200	5.77280	89.73000
2.23400	5.68260	89.64000
2.23600	5.59240	89.64000
2.23800	5.59240	89.64000
2.24000	5.59240	89.64000
2.24200	5.59240	89.64000
2.24400	5.50220	89.55000
2.24600	5.59240	89.46000
2.24800	0.00000	0.00000
2.25000	5.50220	89.55000
2.25200	5.59240	89.73000
2.25400	5.77280	89.82000
2.25600	0.00000	0.00000
2.25800	5.77280	89.82000
2.26000	5.77280	89.91000
2.26200	5.86300	89.82000
2.26400	5.86300	89.73000
2.26600	5.95320	89.73000
2.26800	5.95320	89.64000
2.27000	0.00000	0.00000
2.27200	5.86300	89.73000
2.27400	5.86300	89.73000
2.27600	5.77280	89.82000
2.27800	0.00000	0.00000
2.28000	5.59240	89.73000
2.28200	5.68260	89.91000
2.28400	5.59240	89.91000
2.28600	0.00000	0.00000
2.28800	5.50220	90.00000
2.29000	5.50220	90.00000
2.29200	5.32180	89.91000
2.29400	0.00000	0.00000
2.29600	5.41200	89.82000
2.29800	5.41200	89.91000
2.30000	5.32180	89.91000
2.30200	5.14140	89.91000
2.30400	5.05120	89.82000
2.30600	5.05120	89.82000
2.30800	0.00000	0.00000
2.31000	5.05120	89.82000
2.31200	5.05120	89.73000
2.31400	4.96100	89.73000
2.31600	0.00000	0.00000
2.31800	4.96100	89.64000
2.32000	4.96100	89.73000
2.32200	5.14140	89.64000
2.32400	0.00000	0.00000
2.32600	5.14140	89.55000
2.32800	5.23160	89.46000
2.33000	5.23160	89.46000
2.33200	5.23160	89.46000
2.33400	5.23160	89.55000
2.33600	5.41200	89.46000
2.33800	0.00000	0.00000
2.34000	5.41200	89.46000
2.34200	5.41200	89.46000
2.34400	5.41200	89.28000
2.34600	0.00000	0.00000
2.34800	5.41200	89.19000
2.35000	5.41200	89.19000
2.35200	5.68260	89.19000
2.35400	0.00000	0.00000
2.35600	5.68260	89.19000
2.35800	5.68260	89.10000
2.36000	5.77280	89.19000
2.36200	0.00000	0.00000
2.36400	5.77280	89.19000
2.36600	5.68260	89.19000
2.36800	5.59240	89.10000
2.37000	5.50220	89.19000
2.37200	5.41200	89.10000
2.37400	5.50220	89.10000
2.37600	5.50220	89.10000
2.37800	5.50220	89.10000
2.38000	5.41200	89.19000
2.38200	5.32180	89.19000
2.38400	0.00000	0.00000
2.38600	5.50220	89.19000
2.38800	5.50220	89.19000
2.39000	5.41200	89.28000
2.39200	0.00000	0.00000
2.39400	5.41200	89.28000
2.39600	5.41200	89.19000
2.39800	5.41200	89.19000
2.40000	0.00000	0.00000
2.40200	5.32180	89.10000
2.40400	5.41200	89.19000
2.40600	5.41200	89.28000
2.40800	5.59240	89.28000
2.41000	5.59240	89.28000
2.41200	5.77280	89.37000
2.41400	0.00000	0.00000
2.41600	5.77280	89.28000
2.41800	5.86300	89.28000
2.42000	5.95320	89.46000
2.42200	0.00000	0.00000
2.42400	5.95320	89.37000
2.42600	5.86300	89.37000
2.42800	5.86300	89.55000
2.43000	0.00000	0.00000
2.43200	5.86300	89.46000
2.43400	5.95320	89.46000
2.43600	6.13360	89.55000
2.43800	0.00000	0.00000
2.44000	6.13360	89.64000
2.44200	6.04340	89.55000
2.44400	6.04340	89.46000
2.44600	6.13360	89.64000
2.44800	6.04340	89.55000
2.45000	6.22380	89.64000
2.45200	0.00000	0.00000
2.45400	6.22380	89.73000
2.45600	6.22380	89.82000
2.45800	6.40420	89.82000
2.46000	0.00000	0.00000
2.46200	6.40420	89.91000
2.46400	6.40420	89.91000
2.46600	6.58460	89.91000
2.46800	0.00000	0.00000
2.47000	6.49440	89.91000
2.47200	6.58460	89.91000
2.47400	6.49440	89.91000
2.47600	0.00000	0.00000
2.47800	6.49440	89.82000
2.48000	6.58460	89.82000
2.48200	6.67480	89.82000
2.48400	6.67480	89.73000
2.48600	6.67480	89.82000
2.48800	6.67480	89.82000
2.49000	6.76500	89.64000
2.49200	6.76500	89.73000
2.49400	6.76500	89.82000
2.49600	6.94540	89.73000
2.49800	0.00000	0.00000
2.50000	6.85520	89.73000
2.50200	6.85520	89.64000
2.50400	6.85520	89.73000
2.50600	6.85520	89.73000
2.50800	6.85520	89.82000
2.51000	6.94540	89.82000
2.51200	0.00000	0.00000
2.51400	7.03560	89.73000
2.51600	6.94540	89.73000
2.51800	6.85520	89.82000
2.52000	0.00000	0.00000
2.52200	6.85520	89.73000
2.52400	6.76500	89.73000
2.52600	6.76500	89.64000
2.52800	6.67480	89.55000
2.53000	6.67480	89.55000
2.53200	6.67480	89.55000
2.53400	6.67480	89.55000
2.53600	6.58460	89.55000
2.53800	6.58460	89.46000
2.54000	6.67480	89.55000
2.54200	0.00000	0.00000
2.54400	6.58460	89.55000
2.54600	6.67480	89.46000
2.54800	6.67480	89.37000
2.55000	6.58460	89.46000
2.55200	6.67480	89.37000
2.55400	6.58460	89.46000
2.55600	6.49440	89.46000
2.55800	6.49440	89.37000
2.56000	6.58460	89.46000
2.56200	6.58460	89.37000
2.56400	0.00000	0.00000
2.56600	6.67480	89.37000
2.56800	6.58460	89.28000
2.57000	6.49440	89.37000
2.57200	0.00000	0.00000
2.57400	6.40420	89.28000
2.57600	6.40420	89.28000
2.57800	6.40420	89.28000
2.58000	6.31400	89.28000
2.58200	6.22380	89.46000
2.58400	6.22380	89.55000
2.58600	6.22380	89.46000
2.58800	6.31400	89.46000
2.59000	6.49440	89.37000
2.59200	6.49440	89.46000
2.59400	0.00000	0.00000
2.59600	6.49440	89.55000
2.59800	6.67480	89.64000
2.60000	6.67480	89.64000
2.60200	0.00000	0.00000
2.60400	6.49440	89.64000
2.60600	6.49440	89.55000
2.60800	6.49440	89.55000
2.61000	0.00000	0.00000
2.61200	6.49440	89.73000
2.61400	6.49440	89.73000
2.61600	6.49440	89.73000
2.61800	6.58460	89.73000
2.62000	6.67480	89.73000
2.62200	6.67480	89.64000
2.62400	6.76500	89.64000
2.62600	6.85520	89.64000
2.62800	6.76500	89.64000
2.63000	6.58460	89.64000
2.63200	0.00000	0.00000
2.63400	6.58460	89.64000
2.63600	6.58460	89.73000
2.63800	6.58460	89.64000
2.64000	0.00000	0.00000
2.64200	6.58460	89.64000
2.64400	6.58460	89.73000
2.64600	6.76500	89.82000
2.64800	6.67480	89.73000
2.65000	6.76500	89.73000
2.65200	6.58460	89.73000
2.65400	0.00000	0.00000
2.65600	6.49440	89.73000
2.65800	6.49440	89.55000
2.66000	6.31400	89.55000
2.66200	0.00000	0.00000
2.66400	6.31400	89.55000
2.66600	6.04340	89.55000
2.66800	6.13360	89.64000
2.67000	0.00000	0.00000
2.67200	6.13360	89.73000
2.67400	6.13360	89.64000
2.67600	0.00000	0.00000
2.67800	5.95320	89.46000
2.68000	5.86300	89.55000
2.68200	5.77280	89.46000
2.68400	0.00000	0.00000
2.68600	5.77280	89.46000
2.68800	5.77280	89.55000
2.69000	5.68260	89.46000
2.69200	0.00000	0.00000
2.69400	5.68260	89.37000
2.69600	5.68260	89.28000
2.69800	0.00000	0.00000
2.70000	5.68260	89.28000
2.70200	5.59240	89.37000
2.70400	0.00000	0.00000
2.70600	5.50220	89.28000
2.70800	5.59240	89.19000
2.71000	5.50220	89.19000
2.71200	0.00000	0.00000
2.71400	5.59240	89.28000
2.71600	5.68260	89.28000
2.71800	5.68260	89.28000
2.72000	5.77280	89.37000
2.72200	6.04340	89.46000
2.72400	6.04340	89.37000
2.72600	0.00000	0.00000
2.72800	6.04340	89.37000
2.73000	6.13360	89.28000
2.73200	6.04340	89.28000
2.73400	0.00000	0.00000
2.73600	6.13360	89.37000
2.73800	6.22380	89.46000
2.74000	6.13360	89.37000
2.74200	0.00000	0.00000
2.74400	6.13360	89.37000
2.74600	6.04340	89.28000
2.74800	6.04340	89.28000
2.75000	0.00000	0.00000
2.75200	5.95320	89.28000
2.75400	5.95320	89.28000
2.75600	6.04340	89.37000
2.75800	6.04340	89.37000
2.76000	6.13360	89.37000
2.76200	5.95320	89.28000
2.76400	0.00000	0.00000
2.76600	6.04340	89.37000
2.76800	5.95320	89.46000
2.77000	6.04340	89.55000
2.77200	0.00000	0.00000
2.77400	6.04340	89.55000
2.77600	6.04340	89.64000
2.77800	6.04340	89.55000
2.78000	0.00000	0.00000
2.78200	6.04340	89.55000
2.78400	6.13360	89.64000
2.78600	6.22380	89.64000
2.78800	6.22380	89.64000
2.79000	6.22380	89.73000
2.79200	6.13360	89.73000
2.79400	6.31400	89.73000
2.79600	6.40420	89.73000
2.79800	6.40420	89.73000
2.80000	6.49440	89.73000
2.80200	0.00000	0.00000
2.80400	6.49440	89.82000
2.80600	6.40420	89.91000
2.80800	6.49440	89.82000
2.81000	0.00000	0.00000
2.81200	6.49440	89.82000
2.81400	6.49440	90.00000
2.81600	6.40420	90.00000
2.81800	0.00000	0.00000
2.82000	6.40420	90.00000
2.82200	6.31400	89.91000
2.82400	6.31400	89.91000
2.82600	0.00000	0.00000
2.82800	6.31400	89.91000
2.83000	6.13360	89.91000
2.83200	6.04340	90.00000
2.83400	6.04340	90.00000
2.83600	6.04340	90.00000
2.83800	5.86300	90.00000
2.84000	0.00000	0.00000
2.84200	5.77280	90.00000
2.84400	5.77280	90.00000
2.84600	5.77280	89.82000
2.84800	0.00000	0.00000
2.85000	5.77280	89.73000
2.85200	5.77280	89.73000
2.85400	5.59240	89.82000
2.85600	0.00000	0.00000
2.85800	5.59240	89.82000
2.86000	5.68260	89.82000
2.86200	5.86300	89.73000
2.86400	0.00000	0.00000
2.86600	5.95320	89.64000
2.86800	6.04340	89.73000
2.87000	6.04340	89.82000
2.87200	6.13360	89.82000
2.87400	6.13360	89.82000
2.87600	6.31400	89.64000
2.87800	0.00000	0.00000
2.88000	6.40420	89.73000
2.88200	6.40420	89.73000
2.88400	6.58460	89.55000
2.88600	0.00000	0.00000
2.88800	6.58460	89.55000
2.89000	6.58460	89.55000
2.89200	6.49440	89.64000
2.89400	0.00000	0.00000
2.89600	6.49440	89.55000
2.89800	6.58460	89.46000
2.90000	6.58460	0.00000
2.90200	0.00000	0.00000
2.90400	6.58460	89.55000
2.90600	6.67480	89.46000
2.90800	6.76500	89.46000
2.91000	6.76500	89.28000
2.91200	6.76500	89.28000
2.91400	6.76500	89.37000
2.91600	0.00000	0.00000
2.91800	6.85520	89.37000
2.92000	7.03560	89.37000
2.92200	7.03560	89.37000
2.92400	0.00000	0.00000
2.92600	7.12580	89.46000
2.92800	7.03560	89.37000
2.93000	7.03560	89.37000
2.93200	0.00000	0.00000
2.93400	7.12580	89.19000
2.93600	7.12580	89.19000
2.93800	7.12580	89.19000
2.94000	0.00000	0.00000
2.94200	7.12580	89.37000
2.94400	7.21600	89.46000
2.94600	0.00000	0.00000
2.94800	0.00000	0.00000
2.95000	7.12580	89.46000
2.95200	7.12580	89.46000
2.95400	7.12580	89.46000
2.95600	7.03560	89.55000
2.95800	6.94540	89.46000
2.96000	6.85520	89.37000
2.96200	0.00000	0.00000
2.96400	6.85520	89.37000
2.96600	6.76500	89.46000
2.96800	6.58460	89.37000
2.97000	0.00000	0.00000
2.97200	6.49440	89.46000
2.97400	6.58460	89.46000
2.97600	6.58460	89.55000
2.97800	0.00000	0.00000
2.98000	6.58460	89.55000
2.98200	6.58460	89.55000
2.98400	6.49440	89.64000
2.98600	0.00000	0.00000
2.98800	6.49440	89.64000
2.99000	6.49440	89.55000
2.99200	6.58460	89.46000
2.99400	6.49440	89.46000
2.99600	6.49440	89.46000
2.99800	6.58460	89.46000
3.00000	0.00000	0.00000
3.00200	6.67480	89.55000
3.00400	6.67480	89.55000
3.00600	6.67480	89.55000
3.00800	6.58460	89.55000
3.01000	6.40420	89.55000
3.01200	6.31400	89.46000
3.01400	6.31400	89.46000
3.01600	6.40420	89.46000
3.01800	6.40420	89.55000
3.02000	6.31400	89.64000
3.02200	0.00000	0.00000
3.02400	6.31400	89.55000
3.02600	0.00000	0.00000
3.02800	0.00000	0.00000
3.03000	6.31400	89.64000
3.03200	6.13360	89.64000
3.03400	6.22380	89.64000
3.03600	6.13360	89.73000
3.03800	6.04340	89.55000
3.04000	6.04340	89.46000
3.04200	0.00000	0.00000
3.04400	0.00000	0.00000
3.04600	5.95320	89.46000
3.04800	5.95320	89.37000
3.05000	5.95320	89.37000
3.05200	6.04340	89.46000
3.05400	6.04340	89.46000
3.05600	5.95320	89.37000
3.05800	0.00000	0.00000
3.06000	6.04340	89.37000
3.06200	6.04340	89.46000
3.06400	6.13360	89.37000
3.06600	0.00000	0.00000
3.06800	6.13360	89.37000
3.07000	6.13360	89.46000
3.07200	6.13360	89.46000
3.07400	6.22380	89.37000
3.07600	6.31400	89.37000
3.07800	6.31400	89.46000
3.08000	6.40420	89.46000
3.08200	6.40420	89.46000
3.08400	6.49440	89.46000
3.08600	6.58460	89.46000
3.08800	0.00000	0.00000
3.09000	6.49440	89.37000
3.09200	6.49440	89.46000
3.09400	6.49440	89.37000
3.09600	0.00000	0.00000
3.09800	6.49440	89.37000
3.10000	6.58460	89.46000
3.10200	6.58460	89.37000
3.10400	6.67480	89.46000
3.10600	6.67480	89.46000
3.10800	6.67480	89.46000
3.11000	6.76500	89.46000
3.11200	6.76500	89.46000
3.11400	6.67480	89.46000
3.11600	6.76500	89.55000
3.11800	6.67480	89.55000
3.12000	6.58460	89.55000
3.12200	6.58460	89.55000
3.12400	6.58460	89.55000
3.12600	0.00000	0.00000
3.12800	6.58460	89.64000
3.13000	6.58460	89.73000
3.13200	6.67480	89.91000
3.13400	0.00000	0.00000
3.13600	6.58460	89.73000
3.13800	6.58460	89.73000
3.14000	6.58460	89.73000
3.14200	6.58460	89.73000
3.14400	6.58460	89.73000
3.14600	6.49440	89.73000
3.14800	6.40420	89.73000
3.15000	6.49440	89.73000
3.15200	6.49440	89.73000
3.15400	6.31400	89.73000
3.15600	0.00000	0.00000
3.15800	6.31400	89.73000
3.16000	6.31400	89.82000
3.16200	6.31400	89.82000
3.16400	0.00000	0.00000
3.16600	6.40420	89.82000
3.16800	6.40420	89.82000
3.17000	6.31400	89.82000
3.17200	6.31400	89.73000
3.17400	6.31400	89.73000
3.17600	6.31400	89.82000
3.17800	6.22380	89.73000
3.18000	6.13360	89.73000
3.18200	6.04340	89.82000
3.18400	6.04340	89.91000
3.18600	0.00000	0.00000
3.18800	6.04340	89.91000
3.19000	6.04340	89.91000
3.19200	6.13360	89.82000
3.19400	0.00000	0.00000
3.19600	6.13360	89.73000
3.19800	6.22380	89.73000
3.20000	6.22380	89.82000
3.20200	6.04340	89.82000
3.20400	6.04340	89.73000
3.20600	5.95320	89.73000
3.20800	0.00000	0.00000
3.21000	6.04340	89.73000
3.21200	6.04340	89.73000
3.21400	6.31400	89.73000
3.21600	0.00000	0.00000
3.21800	6.40420	89.64000
3.22000	6.40420	89.64000
3.22200	6.31400	89.82000
3.22400	6.31400	89.82000
3.22600	6.22380	89.73000
3.22800	6.31400	89.64000
3.23000	0.00000	0.00000
3.23200	6.40420	89.64000
3.23400	6.49440	89.64000
3.23600	6.49440	89.46000
3.23800	0.00000	0.00000
3.24000	6.40420	89.37000
3.24200	6.58460	89.28000
3.24400	6.40420	89.37000
3.24600	0.00000	0.00000
3.24800	6.40420	89.37000
3.25000	6.49440	89.37000
3.25200	6.49440	89.28000
3.25400	0.00000	0.00000
3.25600	6.49440	89.28000
3.25800	6.58460	89.28000
3.26000	6.58460	89.37000
3.26200	6.49440	89.19000
3.26400	6.49440	89.19000
3.26600	6.31400	89.28000
3.26800	0.00000	0.00000
3.27000	6.31400	89.28000
3.27200	6.31400	89.28000
3.27400	6.22380	89.19000
3.27600	0.00000	0.00000
3.27800	6.22380	89.19000
3.28000	6.22380	89.19000
3.28200	6.22380	89.19000
3.28400	0.00000	0.00000
3.28600	6.31400	89.28000
3.28800	6.40420	89.28000
3.29000	6.31400	89.19000
3.29200	0.00000	0.00000
3.29400	6.49440	89.28000
3.29600	6.49440	89.28000
3.29800	6.58460	89.37000
3.30000	6.58460	89.37000
3.30200	6.67480	89.37000
3.30400	6.67480	89.28000
3.30600	0.00000	0.00000
3.30800	6.67480	89.28000
3.31000	6.67480	89.28000
3.31200	6.58460	89.28000
3.31400	0.00000	0.00000
3.31600	6.67480	89.37000
3.31800	6.67480	89.37000
3.32000	6.58460	89.46000
3.32200	0.00000	0.00000
3.32400	6.67480	89.55000
3.32600	6.67480	89.64000
3.32800	6.67480	89.64000
3.33000	6.67480	89.55000
3.33200	6.49440	89.64000
3.33400	0.00000	0.00000
3.33600	0.00000	0.00000
3.33800	6.40420	89.64000
3.34000	6.40420	89.64000
3.34200	6.40420	89.55000
3.34400	0.00000	0.00000
3.34600	6.40420	89.46000
3.34800	6.58460	89.46000
3.35000	6.67480	89.46000
3.35200	0.00000	0.00000
3.35400	6.67480	89.55000
3.35600	6.67480	89.55000
3.35800	6.67480	89.55000
3.36000	6.85520	89.55000
3.36200	6.94540	89.46000
3.36400	7.03560	89.73000
3.36600	0.00000	0.00000
3.36800	7.12580	89.73000
3.37000	6.94540	89.73000
3.37200	7.12580	89.73000
3.37400	0.00000	0.00000
3.37600	7.21600	89.73000
3.37800	7.12580	89.64000
3.38000	7.12580	89.64000
3.38200	0.00000	0.00000
3.38400	7.12580	89.73000
3.38600	7.03560	89.64000
3.38800	7.12580	89.55000
3.39000	0.00000	0.00000
3.39200	7.03560	89.55000
3.39400	7.03560	89.55000
3.39600	6.94540	89.46000
3.39800	7.03560	89.28000
3.40000	7.12580	89.55000
3.40200	7.12580	89.55000
3.40400	0.00000	0.00000
3.40600	7.12580	89.55000
3.40800	7.12580	89.64000
3.41000	7.12580	89.64000
3.41200	7.21600	89.55000
3.41400	7.21600	89.64000
3.41600	7.21600	89.64000
3.41800	0.00000	0.00000
3.42000	7.12580	89.64000
3.42200	7.12580	89.55000
3.42400	7.03560	89.55000
3.42600	0.00000	0.00000
3.42800	6.94540	89.55000
3.43000	6.85520	89.55000
3.43200	6.85520	89.55000
3.43400	0.00000	0.00000
3.43600	6.76500	89.55000
3.43800	6.85520	89.64000
3.44000	6.58460	89.55000
3.44200	0.00000	0.00000
3.44400	6.49440	89.64000
3.44600	6.49440	89.46000
3.44800	6.40420	89.55000
3.45000	0.00000	0.00000
3.45200	6.31400	89.55000
3.45400	6.22380	89.64000
3.45600	6.22380	89.64000
3.45800	6.22380	89.73000
3.46000	6.40420	89.64000
3.46200	6.22380	89.64000
3.46400	0.00000	0.00000
3.46600	6.22380	89.64000
3.46800	6.22380	89.82000
3.47000	6.04340	89.73000
3.47200	0.00000	0.00000
3.47400	5.95320	89.73000
3.47600	5.95320	89.64000
3.47800	5.86300	89.64000
3.48000	0.00000	0.00000
3.48200	5.86300	89.64000
3.48400	5.77280	89.73000
3.48600	5.68260	89.73000
3.48800	5.68260	89.73000
3.49000	5.59240	89.73000
3.49200	5.59240	89.91000
3.49400	0.00000	0.00000
3.49600	5.59240	89.82000
3.49800	5.59240	89.73000
3.50000	5.68260	89.73000
3.50200	0.00000	0.00000
3.50400	5.77280	89.73000
3.50600	5.68260	89.82000
3.50800	5.68260	89.73000
3.51000	5.77280	89.73000
3.51200	5.77280	89.73000
3.51400	5.86300	89.73000
3.51600	5.86300	89.73000
3.51800	5.86300	89.73000
3.52000	5.95320	89.73000
3.52200	6.13360	89.82000
3.52400	0.00000	0.00000
3.52600	6.13360	89.73000
3.52800	6.22380	89.73000
3.53000	6.22380	89.73000
3.53200	0.00000	0.00000
3.53400	6.31400	89.73000
3.53600	6.40420	89.73000
3.53800	6.40420	89.73000
3.54000	0.00000	0.00000
3.54200	6.40420	89.64000
3.54400	6.40420	89.64000
3.54600	6.58460	89.55000
3.54800	0.00000	0.00000
3.55000	6.58460	89.46000
3.55200	6.58460	89.46000
3.55400	6.58460	89.46000
3.55600	6.67480	89.46000
3.55800	6.76500	89.37000
3.56000	6.76500	89.37000
3.56200	0.00000	0.00000
3.56400	6.76500	89.37000
3.56600	6.85520	89.37000
3.56800	6.85520	89.28000
3.57000	0.00000	0.00000
3.57200	6.85520	89.28000
3.57400	6.85520	89.28000
3.57600	6.94540	89.19000
3.57800	0.00000	0.00000
3.58000	6.94540	89.19000
3.58200	6.94540	89.37000
3.58400	6.94540	89.37000
3.58600	0.00000	0.00000
3.58800	7.03560	89.28000
3.59000	6.94540	89.19000
3.59200	6.94540	89.19000
3.59400	6.94540	89.19000
3.59600	6.94540	89.19000
3.59800	6.85520	89.19000
3.60000	6.85520	89.19000
3.60200	6.76500	89.28000
3.60400	6.76500	89.10000
3.60600	6.85520	89.01000
3.60800	0.00000	0.00000
3.61000	6.76500	89.01000
3.61200	6.76500	89.10000
3.61400	6.76500	89.01000
3.61600	6.67480	89.10000
3.61800	6.76500	89.19000
3.62000	6.58460	89.10000
3.62200	0.00000	0.00000
3.62400	6.58460	89.10000
3.62600	6.49440	89.19000
3.62800	6.40420	89.10000
3.63000	0.00000	0.00000
3.63200	6.31400	89.19000
3.63400	6.13360	89.28000
3.63600	6.13360	89.28000
3.63800	0.00000	0.00000
3.64000	6.13360	89.37000
3.64200	6.13360	89.55000
3.64400	6.13360	89.55000
3.64600	0.00000	0.00000
3.64800	5.95320	89.55000
3.65000	5.95320	89.55000
3.65200	5.95320	89.55000
3.65400	6.04340	89.46000
3.65600	6.04340	89.55000
3.65800	5.95320	89.55000
3.66000	0.00000	0.00000
3.66200	5.95320	89.55000
3.66400	5.95320	89.64000
3.66600	5.86300	89.46000
3.66800	0.00000	0.00000
3.67000	5.77280	89.55000
3.67200	5.77280	89.37000
3.67400	5.95320	89.73000
3.67600	0.00000	0.00000
3.67800	5.86300	89.64000
3.68000	5.77280	89.73000
3.68200	5.68260	89.73000
3.68400	5.77280	89.82000
3.68600	5.86300	89.73000
3.68800	5.77280	89.73000
3.69000	5.77280	89.82000
3.69200	5.68260	89.73000
3.69400	5.68260	89.82000
3.69600	5.59240	89.82000
3.69800	5.59240	89.82000
3.70000	5.59240	89.82000
3.70200	5.59240	89.82000
3.70400	5.68260	89.73000
3.70600	5.77280	89.73000
3.70800	5.68260	89.73000
3.71000	5.77280	89.73000
3.71200	5.59240	89.82000
3.71400	5.68260	89.73000
3.71600	5.77280	89.73000
3.71800	0.00000	0.00000
3.72000	5.86300	89.64000
3.72200	5.86300	89.73000
3.72400	5.86300	89.73000
3.72600	5.86300	89.73000
3.72800	5.86300	89.73000
3.73000	5.95320	89.82000
3.73200	0.00000	0.00000
3.73400	5.95320	89.73000
3.73600	5.95320	89.55000
3.73800	6.04340	89.46000
3.74000	0.00000	0.00000
3.74200	5.95320	89.37000
3.74400	5.86300	89.55000
3.74600	6.13360	89.73000
3.74800	0.00000	0.00000
3.75000	6.04340	89.64000
3.75200	5.95320	89.64000
3.75400	5.95320	89.55000
3.75600	0.00000	0.00000
3.75800	6.04340	89.46000
3.76000	6.13360	89.55000
3.76200	6.13360	89.64000
3.76400	6.22380	89.64000
3.76600	6.13360	89.73000
3.76800	6.04340	89.55000
3.77000	0.00000	0.00000
3.77200	6.04340	89.55000
3.77400	6.13360	89.46000
3.77600	6.04340	89.46000
3.77800	0.00000	0.00000
3.78000	6.13360	89.64000
3.78200	6.13360	89.64000
3.78400	6.04340	89.46000
3.78600	0.00000	0.00000
3.78800	6.04340	89.37000
3.79000	6.04340	89.46000
3.79200	6.04340	89.46000
3.79400	0.00000	0.00000
3.79600	6.04340	89.55000
3.79800	6.13360	89.55000
3.80000	6.13360	89.55000
3.80200	0.00000	0.00000
3.80400	6.13360	89.55000
3.80600	6.13360	89.46000
3.80800	6.13360	89.37000
3.81000	6.13360	89.37000
3.81200	6.13360	89.37000
3.81400	6.13360	89.37000
3.81600	6.22380	89.55000
3.81800	6.31400	89.55000
3.82000	6.31400	89.55000
3.82200	0.00000	0.00000
3.82400	0.00000	0.00000
3.82600	6.40420	89.46000
3.82800	6.22380	89.55000
3.83000	6.31400	89.64000
3.83200	6.40420	89.73000
3.83400	6.40420	89.73000
3.83600	6.31400	89.64000
3.83800	6.31400	89.64000
3.84000	6.31400	89.64000
3.84200	6.40420	89.46000
3.84400	6.40420	89.46000
3.84600	0.00000	0.00000
3.84800	6.49440	89.55000
3.85000	6.49440	89.64000
3.85200	6.49440	89.73000
3.85400	0.00000	0.00000
3.85600	6.40420	89.73000
3.85800	6.40420	89.64000
3.86000	6.40420	89.64000
3.86200	0.00000	0.00000
3.86400	6.40420	89.82000
3.86600	6.40420	89.82000
3.86800	6.31400	89.73000
3.87000	6.22380	89.73000
3.87200	6.13360	89.73000
3.87400	6.31400	89.64000
3.87600	0.00000	0.00000
3.87800	6.22380	89.73000
3.88000	6.22380	89.64000
3.88200	6.31400	89.64000
3.88400	0.00000	0.00000
3.88600	6.31400	89.55000
3.88800	6.31400	89.55000
3.89000	6.49440	89.55000
3.89200	0.00000	0.00000
3.89400	6.58460	89.55000
3.89600	6.67480	89.46000
3.89800	6.58460	89.46000
3.90000	0.00000	0.00000
3.90200	6.58460	89.55000
3.90400	6.49440	89.46000
3.90600	6.49440	89.46000
3.90800	6.67480	89.46000
3.91000	6.58460	89.37000
3.91200	6.58460	89.37000
3.91400	0.00000	0.00000
3.91600	6.58460	89.37000
3.91800	6.85520	89.37000
3.92000	6.85520	89.37000
3.92200	0.00000	0.00000
3.92400	6.94540	89.37000
3.92600	6.94540	89.37000
3.92800	6.94540	0.00000
3.93000	0.00000	0.00000
3.93200	6.85520	89.19000
3.93400	6.76500	89.28000
3.93600	6.94540	89.19000
3.93800	0.00000	0.00000
3.94000	6.94540	89.28000
3.94200	6.94540	89.19000
3.94400	7.03560	89.28000
3.94600	7.03560	89.28000
3.94800	7.12580	89.28000
3.95000	6.94540	89.28000
3.95200	0.00000	0.00000
3.95400	7.03560	89.28000
3.95600	7.12580	89.28000
3.95800	7.12580	89.19000
3.96000	0.00000	0.00000
3.96200	7.12580	89.28000
3.96400	7.03560	89.37000
3.96600	7.12580	89.28000
3.96800	0.00000	0.00000
3.97000	7.12580	89.37000
3.97200	7.03560	89.28000
3.97400	7.03560	89.28000
3.97600	0.00000	0.00000
3.97800	6.94540	89.46000
3.98000	6.85520	89.46000
3.98200	6.94540	89.46000
3.98400	6.94540	89.46000
3.98600	6.94540	89.46000
3.98800	6.76500	89.46000
3.99000	0.00000	0.00000
3.99200	6.85520	89.46000
3.99400	6.85520	89.46000
3.99600	6.85520	89.55000
3.99800	0.00000	0.00000
4.00000	6.85520	89.46000
4.00200	6.85520	89.46000
4.00400	6.76500	89.64000
4.00600	0.00000	0.00000
4.00800	6.85520	89.64000
4.01000	6.85520	89.64000
4.01200	6.94540	89.64000
4.01400	6.85520	89.64000
4.01600	6.85520	89.64000
4.01800	7.03560	89.64000
4.02000	7.03560	89.73000
4.02200	7.12580	89.73000
4.02400	7.12580	89.64000
4.02600	7.03560	89.82000
4.02800	0.00000	0.00000
4.03000	6.94540	89.91000
4.03200	6.85520	89.82000
4.03400	6.76500	0.00000
4.03600	0.00000	0.00000
4.03800	6.94540	89.91000
4.04000	6.94540	89.82000
4.04200	6.85520	89.91000
4.04400	6.76500	89.91000
4.04600	6.76500	89.91000
4.04800	6.67480	89.91000
4.05000	0.00000	0.00000
4.05200	6.76500	89.82000
4.05400	6.76500	89.91000
4.05600	6.58460	89.91000
4.05800	0.00000	0.00000
4.06000	6.58460	89.91000
4.06200	6.58460	89.73000
4.06400	6.58460	89.73000
4.06600	0.00000	0.00000
4.06800	6.58460	89.73000
4.07000	6.49440	89.64000
4.07200	6.58460	89.73000
4.07400	6.67480	89.73000
4.07600	6.58460	89.64000
4.07800	6.67480	89.73000
4.08000	6.58460	89.82000
4.08200	6.58460	89.82000
4.08400	6.58460	89.73000
4.08600	6.67480	89.73000
4.08800	6.67480	89.64000
4.09000	6.76500	89.46000
4.09200	6.85520	89.46000
4.09400	6.85520	89.46000
4.09600	0.00000	0.00000
4.09800	6.76500	89.55000
4.10000	6.76500	89.55000
4.10200	6.76500	89.55000
4.10400	0.00000	0.00000
4.10600	6.85520	89.55000
4.10800	6.76500	89.64000
4.11000	6.58460	89.55000
4.11200	0.00000	0.00000
4.11400	6.58460	89.55000
4.11600	6.67480	89.46000
4.11800	6.58460	89.46000
4.12000	6.40420	89.55000
4.12200	6.31400	89.64000
4.12400	6.40420	89.55000
4.12600	0.00000	0.00000
4.12800	6.31400	89.46000
4.13000	6.22380	89.37000
4.13200	6.22380	89.37000
4.13400	0.00000	0.00000
4.13600	6.13360	89.37000
4.13800	6.13360	89.46000
4.14000	6.04340	89.37000
4.14200	0.00000	0.00000
4.14400	6.04340	89.37000
4.14600	6.04340	89.37000
4.14800	5.95320	89.46000
4.15000	5.95320	89.37000
4.15200	6.04340	89.37000
4.15400	5.95320	89.37000
4.15600	0.00000	0.00000
4.15800	5.95320	89.46000
4.16000	5.95320	89.46000
4.16200	5.95320	89.46000
4.16400	0.00000	0.00000
4.16600	6.13360	89.37000
4.16800	6.04340	89.46000
4.17000	6.13360	89.46000
4.17200	0.00000	0.00000
4.17400	6.13360	89.46000
4.17600	6.13360	89.55000
4.17800	6.22380	89.55000
4.18000	6.22380	89.55000
4.18200	6.22380	89.64000
4.18400	6.13360	89.55000
4.18600	0.00000	0.00000
4.18800	6.22380	89.64000
4.19000	6.13360	89.64000
4.19200	6.13360	89.73000
4.19400	0.00000	0.00000
4.19600	6.13360	89.73000
4.19800	6.22380	89.64000
4.20000	6.22380	89.64000
4.20200	0.00000	0.00000
4.20400	6.22380	89.55000
4.20600	6.22380	89.64000
4.20800	6.13360	89.64000
4.21000	0.00000	0.00000
4.21200	6.22380	89.55000
4.21400	6.22380	89.64000
4.21600	6.22380	89.73000
4.21800	6.22380	89.64000
4.22000	6.22380	89.55000
4.22200	6.13360	89.64000
4.22400	0.00000	0.00000
4.22600	6.22380	89.55000
4.22800	6.22380	89.46000
4.23000	6.40420	89.55000
4.23200	0.00000	0.00000
4.23400	6.31400	89.64000
4.23600	6.22380	89.64000
4.23800	6.22380	89.64000
4.24000	0.00000	0.00000
4.24200	6.22380	89.64000
4.24400	6.22380	89.73000
4.24600	6.22380	89.64000
4.24800	6.22380	89.55000
4.25000	6.22380	89.55000
4.25200	6.22380	89.46000
4.25400	0.00000	0.00000
4.25600	6.22380	89.46000
4.25800	6.31400	89.55000
4.26000	6.22380	89.46000
4.26200	0.00000	0.00000
4.26400	6.40420	89.55000
4.26600	6.31400	89.55000
4.26800	6.31400	89.46000
4.27000	6.40420	89.37000
4.27200	6.40420	89.37000
4.27400	6.49440	89.37000
4.27600	0.00000	0.00000
4.27800	6.49440	89.46000
4.28000	6.49440	89.28000
4.28200	6.58460	89.28000
4.28400	0.00000	0.00000
4.28600	6.40420	89.46000
4.28800	6.31400	89.46000
4.29000	6.22380	89.37000
4.29200	0.00000	0.00000
4.29400	6.22380	89.28000
4.29600	6.13360	89.37000
4.29800	0.00000	0.00000
4.30000	6.13360	89.37000
4.30200	6.13360	89.37000
4.30400	6.04340	89.37000
4.30600	0.00000	0.00000
4.30800	6.04340	89.37000
4.31000	5.95320	89.28000
4.31200	5.95320	89.19000
4.31400	0.00000	0.00000
4.31600	5.95320	89.28000
4.31800	5.95320	89.28000
4.32000	5.86300	89.46000
4.32200	0.00000	0.00000
4.32400	5.86300	89.46000
4.32600	6.04340	0.00000
4.32800	0.00000	0.00000
4.33000	6.04340	89.37000
4.33200	6.04340	89.46000
4.33400	6.04340	89.46000
4.33600	6.22380	89.55000
4.33800	6.22380	89.55000
4.34000	6.13360	89.55000
4.34200	6.40420	89.64000
4.34400	0.00000	0.00000
4.34600	6.49440	89.64000
4.34800	6.40420	89.64000
4.35000	6.49440	89.64000
4.35200	0.00000	0.00000
4.35400	6.40420	89.55000
4.35600	6.31400	89.64000
4.35800	6.22380	89.64000
4.36000	6.31400	89.73000
4.36200	6.40420	89.73000
4.36400	6.49440	89.64000
4.36600	0.00000	0.00000
4.36800	6.49440	89.73000
4.37000	6.49440	89.73000
4.37200	6.49440	89.82000
4.37400	6.49440	89.91000
4.37600	6.58460	89.91000
4.37800	6.49440	89.91000
4.38000	6.67480	89.91000
4.38200	6.67480	89.91000
4.38400	6.76500	89.82000
4.38600	6.76500	0.00000
4.38800	0.00000	0.00000
4.39000	6.76500	89.82000
4.39200	6.85520	89.73000
4.39400	7.03560	89.91000
4.39600	0.00000	0.00000
4.39800	7.03560	89.82000
4.40000	7.12580	89.82000
4.40200	7.21600	89.73000
4.40400	0.00000	0.00000
4.40600	7.21600	89.73000
4.40800	7.30620	89.82000
4.41000	7.30620	89.82000
4.41200	7.21600	89.82000
4.41400	7.12580	89.73000
4.41600	7.30620	89.73000
4.41800	0.00000	0.00000
4.42000	7.30620	89.73000
4.42200	7.48660	89.73000
4.42400	7.39640	89.73000
4.42600	0.00000	0.00000
4.42800	7.30620	89.73000
4.43000	7.21600	89.64000
4.43200	7.12580	89.46000
4.43400	0.00000	0.00000
4.43600	7.03560	89.55000
4.43800	7.03560	89.46000
4.44000	7.12580	89.28000
4.44200	0.00000	0.00000
4.44400	6.94540	89.37000
4.44600	6.76500	89.37000
4.44800	6.85520	89.37000
4.45000	0.00000	0.00000
4.45200	6.85520	89.37000
4.45400	6.85520	89.37000
4.45600	0.00000	0.00000
4.45800	6.76500	89.37000
4.46000	6.76500	89.37000
4.46200	6.76500	89.55000
4.46400	0.00000	0.00000
4.46600	6.67480	89.55000
4.46800	6.58460	89.46000
4.47000	6.58460	89.55000
4.47200	0.00000	0.00000
4.47400	6.49440	89.46000
4.47600	6.49440	89.46000
4.47800	6.58460	89.46000
4.48000	0.00000	0.00000
4.48200	6.76500	89.46000
4.48400	6.85520	89.46000
4.48600	6.85520	89.46000
4.48800	6.85520	89.37000
4.49000	6.85520	89.46000
4.49200	6.85520	89.55000
4.49400	0.00000	0.00000
4.49600	6.76500	89.55000
4.49800	6.94540	89.55000
4.50000	6.94540	89.55000
4.50200	0.00000	0.00000
4.50400	6.94540	89.64000
4.50600	6.76500	89.64000
4.50800	6.76500	89.64000
4.51000	0.00000	0.00000
4.51200	6.67480	89.73000
4.51400	6.76500	89.55000
4.51600	6.76500	89.55000
4.51800	0.00000	0.00000
4.52000	6.67480	89.64000
4.52200	6.49440	89.73000
4.52400	6.49440	89.73000
4.52600	0.00000	0.00000
4.52800	6.58460	89.64000
4.53000	6.49440	89.64000
4.53200	6.49440	89.82000
4.53400	0.00000	0.00000
4.53600	6.40420	89.73000
4.53800	6.40420	89.73000
4.54000	6.49440	89.73000
4.54200	6.58460	89.73000
4.54400	6.49440	89.64000
4.54600	0.00000	0.00000
4.54800	6.67480	89.73000
4.55000	6.67480	89.64000
4.55200	6.67480	89.64000
4.55400	6.67480	89.73000
4.55600	0.00000	0.00000
4.55800	6.67480	89.73000
4.56000	6.58460	89.82000
4.56200	6.49440	89.82000
4.56400	6.49440	89.82000
4.56600	6.49440	89.82000
4.56800	6.40420	89.73000
4.57000	0.00000	0.00000
4.57200	6.49440	89.73000
4.57400	6.40420	89.73000
4.57600	6.31400	89.73000
4.57800	0.00000	0.00000
4.58000	6.40420	89.73000
4.58200	6.49440	89.73000
4.58400	6.31400	89.64000
4.58600	6.31400	89.64000
4.58800	6.31400	89.73000
4.59000	6.31400	89.82000
4.59200	6.31400	89.73000
4.59400	6.40420	89.55000
4.59600	6.31400	89.64000
4.59800	6.31400	89.64000
4.60000	0.00000	0.00000
4.60200	6.22380	89.46000
4.60400	6.13360	89.46000
4.60600	6.22380	89.37000
4.60800	0.00000	0.00000
4.61000	6.22380	89.37000
4.61200	6.31400	89.37000
4.61400	6.31400	89.37000
4.61600	6.31400	89.37000
4.61800	6.31400	89.37000
4.62000	6.22380	89.37000
4.62200	0.00000	0.00000
4.62400	6.13360	89.28000
4.62600	6.13360	89.28000
4.62800	0.00000	0.00000
4.63000	0.00000	0.00000
4.63200	6.04340	89.46000
4.63400	5.95320	89.37000
4.63600	5.95320	89.10000
4.63800	0.00000	0.00000
4.64000	5.77280	89.10000
4.64200	5.77280	89.19000
4.64400	5.77280	89.19000
4.64600	5.77280	89.10000
4.64800	5.86300	89.10000
4.65000	5.86300	89.19000
4.65200	0.00000	0.00000
4.65400	5.95320	89.19000
4.65600	6.04340	89.19000
4.65800	6.13360	89.28000
4.66000	0.00000	0.00000
4.66200	6.13360	89.28000
4.66400	6.22380	89.28000
4.66600	6.22380	89.37000
4.66800	0.00000	0.00000
4.67000	6.22380	89.55000
4.67200	6.22380	89.55000
4.67400	6.40420	89.46000
4.67600	0.00000	0.00000
4.67800	6.40420	89.28000
4.68000	6.49440	89.28000
4.68200	6.49440	89.46000
4.68400	6.49440	89.55000
4.68600	6.58460	89.55000
4.68800	6.49440	89.55000
4.69000	0.00000	0.00000
4.69200	6.40420	89.55000
4.69400	6.40420	89.55000
4.69600	6.40420	89.46000
4.69800	6.49440	89.46000
4.70000	6.49440	89.64000
4.70200	6.49440	89.64000
4.70400	6.49440	89.73000
4.70600	6.49440	89.73000
4.70800	6.40420	89.82000
4.71000	6.31400	89.82000
4.71200	6.40420	89.82000
4.71400	6.40420	89.91000
4.71600	6.31400	0.00000
4.71800	0.00000	0.00000
4.72000	6.40420	89.91000
4.72200	6.31400	90.00000
4.72400	6.31400	90.00000
4.72600	0.00000	0.00000
4.72800	6.31400	89.91000
4.73000	6.22380	90.09000
4.73200	6.22380	90.09000
4.73400	0.00000	0.00000
4.73600	6.22380	90.09000
4.73800	6.22380	90.00000
4.74000	6.22380	0.00000
4.74200	0.00000	0.00000
4.74400	6.22380	90.00000
4.74600	6.13360	90.00000
4.74800	6.04340	90.00000
4.75000	6.13360	90.00000
4.75200	6.13360	90.00000
4.75400	6.04340	89.82000
4.75600	0.00000	0.00000
4.75800	5.95320	89.82000
4.76000	5.95320	89.82000
4.76200	5.95320	89.82000
4.76400	0.00000	0.00000
4.76600	5.86300	89.82000
4.76800	5.86300	89.73000
4.77000	5.86300	89.73000
4.77200	5.77280	89.82000
4.77400	5.68260	89.73000
4.77600	5.59240	89.73000
4.77800	5.59240	89.64000
4.78000	5.59240	89.64000
4.78200	5.59240	89.64000
4.78400	5.59240	89.55000
4.78600	0.00000	0.00000
4.78800	5.59240	89.64000
4.79000	5.68260	89.55000
4.79200	5.68260	89.55000
4.79400	5.77280	89.46000
4.79600	5.77280	89.37000
4.79800	5.77280	89.37000
4.80000	0.00000	0.00000
4.80200	5.95320	89.55000
4.80400	6.04340	89.46000
4.80600	5.95320	89.46000
4.80800	0.00000	0.00000
4.81000	5.95320	89.37000
4.81200	6.04340	89.37000
4.81400	5.95320	89.46000
4.81600	0.00000	0.00000
4.81800	5.95320	89.28000
4.82000	6.04340	89.28000
4.82200	6.13360	89.37000
4.82400	6.04340	89.37000
4.82600	6.04340	89.28000
4.82800	6.04340	89.28000
4.83000	0.00000	0.00000
4.83200	6.04340	89.28000
4.83400	6.13360	89.28000
4.83600	6.22380	89.28000
4.83800	6.13360	89.28000
4.84000	6.13360	89.28000
4.84200	6.13360	89.28000
4.84400	6.13360	89.28000
4.84600	0.00000	0.00000
4.84800	6.22380	89.28000
4.85000	6.13360	89.28000
4.85200	6.31400	89.28000
4.85400	6.31400	89.28000
4.85600	6.40420	89.28000
4.85800	6.49440	89.28000
4.86000	6.49440	89.19000
4.86200	6.40420	89.19000
4.86400	6.58460	89.19000
4.86600	6.76500	89.19000
4.86800	0.00000	0.00000
4.87000	6.76500	89.28000
4.87200	6.85520	89.19000
4.87400	6.85520	89.28000
4.87600	0.00000	0.00000
4.87800	6.94540	89.28000
4.88000	6.94540	89.46000
4.88200	6.76500	89.46000
4.88400	6.94540	89.46000
4.88600	7.03560	89.46000
4.88800	7.12580	89.55000
4.89000	7.30620	89.46000
4.89200	7.30620	89.46000
4.89400	7.21600	89.46000
4.89600	7.21600	89.55000
4.89800	7.30620	89.55000
4.90000	7.30620	89.64000
4.90200	7.21600	89.55000
4.90400	7.12580	89.46000
4.90600	7.12580	89.64000
4.90800	7.03560	89.55000
4.91000	7.03560	89.55000
4.91200	0.00000	0.00000
4.91400	6.94540	89.55000
4.91600	6.94540	89.55000
4.91800	6.94540	89.64000
4.92000	0.00000	0.00000
4.92200	6.94540	89.64000
4.92400	6.94540	89.73000
4.92600	6.94540	89.82000
4.92800	0.00000	0.00000
4.93000	6.94540	89.82000
4.93200	6.94540	89.91000
4.93400	7.12580	89.64000
4.93600	0.00000	0.00000
